[Info]
Number of Regions=0001
Version=1.3.1

[Region 1]
Region Name=Cu3pRu4s
Dimension 1 name=Kinetic Energy [eV]
Dimension 1 size=601
Dimension 1 scale=530.00000 530.10000 530.20000 530.30000 530.40000 530.50000 530.60000 530.70000 530.80000 530.90000 531.00000 531.10000 531.20000 531.30000 531.40000 531.50000 531.60000 531.70000 531.80000 531.90000 532.00000 532.10000 532.20000 532.30000 532.40000 532.50000 532.60000 532.70000 532.80000 532.90000 533.00000 533.10000 533.20000 533.30000 533.40000 533.50000 533.60000 533.70000 533.80000 533.90000 534.00000 534.10000 534.20000 534.30000 534.40000 534.50000 534.60000 534.70000 534.80000 534.90000 535.00000 535.10000 535.20000 535.30000 535.40000 535.50000 535.60000 535.70000 535.80000 535.90000 536.00000 536.10000 536.20000 536.30000 536.40000 536.50000 536.60000 536.70000 536.80000 536.90000 537.00000 537.10000 537.20000 537.30000 537.40000 537.50000 537.60000 537.70000 537.80000 537.90000 538.00000 538.10000 538.20000 538.30000 538.40000 538.50000 538.60000 538.70000 538.80000 538.90000 539.00000 539.10000 539.20000 539.30000 539.40000 539.50000 539.60000 539.70000 539.80000 539.90000 540.00000 540.10000 540.20000 540.30000 540.40000 540.50000 540.60000 540.70000 540.80000 540.90000 541.00000 541.10000 541.20000 541.30000 541.40000 541.50000 541.60000 541.70000 541.80000 541.90000 542.00000 542.10000 542.20000 542.30000 542.40000 542.50000 542.60000 542.70000 542.80000 542.90000 543.00000 543.10000 543.20000 543.30000 543.40000 543.50000 543.60000 543.70000 543.80000 543.90000 544.00000 544.10000 544.20000 544.30000 544.40000 544.50000 544.60000 544.70000 544.80000 544.90000 545.00000 545.10000 545.20000 545.30000 545.40000 545.50000 545.60000 545.70000 545.80000 545.90000 546.00000 546.10000 546.20000 546.30000 546.40000 546.50000 546.60000 546.70000 546.80000 546.90000 547.00000 547.10000 547.20000 547.30000 547.40000 547.50000 547.60000 547.70000 547.80000 547.90000 548.00000 548.10000 548.20000 548.30000 548.40000 548.50000 548.60000 548.70000 548.80000 548.90000 549.00000 549.10000 549.20000 549.30000 549.40000 549.50000 549.60000 549.70000 549.80000 549.90000 550.00000 550.10000 550.20000 550.30000 550.40000 550.50000 550.60000 550.70000 550.80000 550.90000 551.00000 551.10000 551.20000 551.30000 551.40000 551.50000 551.60000 551.70000 551.80000 551.90000 552.00000 552.10000 552.20000 552.30000 552.40000 552.50000 552.60000 552.70000 552.80000 552.90000 553.00000 553.10000 553.20000 553.30000 553.40000 553.50000 553.60000 553.70000 553.80000 553.90000 554.00000 554.10000 554.20000 554.30000 554.40000 554.50000 554.60000 554.70000 554.80000 554.90000 555.00000 555.10000 555.20000 555.30000 555.40000 555.50000 555.60000 555.70000 555.80000 555.90000 556.00000 556.10000 556.20000 556.30000 556.40000 556.50000 556.60000 556.70000 556.80000 556.90000 557.00000 557.10000 557.20000 557.30000 557.40000 557.50000 557.60000 557.70000 557.80000 557.90000 558.00000 558.10000 558.20000 558.30000 558.40000 558.50000 558.60000 558.70000 558.80000 558.90000 559.00000 559.10000 559.20000 559.30000 559.40000 559.50000 559.60000 559.70000 559.80000 559.90000 560.00000 560.10000 560.20000 560.30000 560.40000 560.50000 560.60000 560.70000 560.80000 560.90000 561.00000 561.10000 561.20000 561.30000 561.40000 561.50000 561.60000 561.70000 561.80000 561.90000 562.00000 562.10000 562.20000 562.30000 562.40000 562.50000 562.60000 562.70000 562.80000 562.90000 563.00000 563.10000 563.20000 563.30000 563.40000 563.50000 563.60000 563.70000 563.80000 563.90000 564.00000 564.10000 564.20000 564.30000 564.40000 564.50000 564.60000 564.70000 564.80000 564.90000 565.00000 565.10000 565.20000 565.30000 565.40000 565.50000 565.60000 565.70000 565.80000 565.90000 566.00000 566.10000 566.20000 566.30000 566.40000 566.50000 566.60000 566.70000 566.80000 566.90000 567.00000 567.10000 567.20000 567.30000 567.40000 567.50000 567.60000 567.70000 567.80000 567.90000 568.00000 568.10000 568.20000 568.30000 568.40000 568.50000 568.60000 568.70000 568.80000 568.90000 569.00000 569.10000 569.20000 569.30000 569.40000 569.50000 569.60000 569.70000 569.80000 569.90000 570.00000 570.10000 570.20000 570.30000 570.40000 570.50000 570.60000 570.70000 570.80000 570.90000 571.00000 571.10000 571.20000 571.30000 571.40000 571.50000 571.60000 571.70000 571.80000 571.90000 572.00000 572.10000 572.20000 572.30000 572.40000 572.50000 572.60000 572.70000 572.80000 572.90000 573.00000 573.10000 573.20000 573.30000 573.40000 573.50000 573.60000 573.70000 573.80000 573.90000 574.00000 574.10000 574.20000 574.30000 574.40000 574.50000 574.60000 574.70000 574.80000 574.90000 575.00000 575.10000 575.20000 575.30000 575.40000 575.50000 575.60000 575.70000 575.80000 575.90000 576.00000 576.10000 576.20000 576.30000 576.40000 576.50000 576.60000 576.70000 576.80000 576.90000 577.00000 577.10000 577.20000 577.30000 577.40000 577.50000 577.60000 577.70000 577.80000 577.90000 578.00000 578.10000 578.20000 578.30000 578.40000 578.50000 578.60000 578.70000 578.80000 578.90000 579.00000 579.10000 579.20000 579.30000 579.40000 579.50000 579.60000 579.70000 579.80000 579.90000 580.00000 580.10000 580.20000 580.30000 580.40000 580.50000 580.60000 580.70000 580.80000 580.90000 581.00000 581.10000 581.20000 581.30000 581.40000 581.50000 581.60000 581.70000 581.80000 581.90000 582.00000 582.10000 582.20000 582.30000 582.40000 582.50000 582.60000 582.70000 582.80000 582.90000 583.00000 583.10000 583.20000 583.30000 583.40000 583.50000 583.60000 583.70000 583.80000 583.90000 584.00000 584.10000 584.20000 584.30000 584.40000 584.50000 584.60000 584.70000 584.80000 584.90000 585.00000 585.10000 585.20000 585.30000 585.40000 585.50000 585.60000 585.70000 585.80000 585.90000 586.00000 586.10000 586.20000 586.30000 586.40000 586.50000 586.60000 586.70000 586.80000 586.90000 587.00000 587.10000 587.20000 587.30000 587.40000 587.50000 587.60000 587.70000 587.80000 587.90000 588.00000 588.10000 588.20000 588.30000 588.40000 588.50000 588.60000 588.70000 588.80000 588.90000 589.00000 589.10000 589.20000 589.30000 589.40000 589.50000 589.60000 589.70000 589.80000 589.90000 590.00000

[Info 1]
Region Name=Cu3pRu4s
Excitation Energy=650
Energy Scale=Kinetic
Acquisition Mode=Swept
Center Energy=560
Low Energy=530
High Energy=590
Energy Step=0.1
Step Time=200
Detector First X-Channel=100
Detector Last X-Channel=900
Detector First Y-Channel=165
Detector Last Y-Channel=835
Number of Slices=1
Lens Mode=Angular30
Pass Energy=100
Number of Sweeps=10
File=D:\USERS\Run173\Falta\180528\Ru02_0063.pxt,.txt
Sequence=C:\SES 1.3.1-r9\Sequences\Gardonio_27012017.seq
Spectrum Name=Cu3pRu4s
Instrument=R4000-4MS229
Location=Scienta
User=Falta
Sample=Ru
Comments=
Date=2018-05-31
Time=14:50:43
Time per Spectrum Channel=126
DetectorMode=ADC

[Run Mode Information 1]
Name=Add Dimension


[Data 1]
 5.30000000000000E+0002  2.76280000000000E+0004
 5.30100000000000E+0002  2.80800000000000E+0004
 5.30200000000000E+0002  2.70590000000000E+0004
 5.30300000000000E+0002  2.71420000000000E+0004
 5.30400000000000E+0002  2.78070000000000E+0004
 5.30500000000000E+0002  2.77980000000000E+0004
 5.30600000000000E+0002  2.72300000000000E+0004
 5.30700000000000E+0002  2.75120000000000E+0004
 5.30800000000000E+0002  2.80560000000000E+0004
 5.30900000000000E+0002  2.72700000000000E+0004
 5.31000000000000E+0002  2.77060000000000E+0004
 5.31100000000000E+0002  2.77620000000000E+0004
 5.31200000000000E+0002  2.76040000000000E+0004
 5.31300000000000E+0002  2.75350000000000E+0004
 5.31400000000000E+0002  2.80150000000000E+0004
 5.31500000000000E+0002  2.75320000000000E+0004
 5.31600000000000E+0002  2.74280000000000E+0004
 5.31700000000000E+0002  2.84260000000000E+0004
 5.31800000000000E+0002  2.83920000000000E+0004
 5.31900000000000E+0002  2.78820000000000E+0004
 5.32000000000000E+0002  2.80430000000000E+0004
 5.32100000000000E+0002  2.78600000000000E+0004
 5.32200000000000E+0002  2.76150000000000E+0004
 5.32300000000000E+0002  2.80550000000000E+0004
 5.32400000000000E+0002  2.81800000000000E+0004
 5.32500000000000E+0002  2.79960000000000E+0004
 5.32600000000000E+0002  2.80460000000000E+0004
 5.32700000000000E+0002  2.80520000000000E+0004
 5.32800000000000E+0002  2.79250000000000E+0004
 5.32900000000000E+0002  2.83330000000000E+0004
 5.33000000000000E+0002  2.79350000000000E+0004
 5.33100000000000E+0002  2.77120000000000E+0004
 5.33200000000000E+0002  2.81330000000000E+0004
 5.33300000000000E+0002  2.88430000000000E+0004
 5.33400000000000E+0002  2.83660000000000E+0004
 5.33500000000000E+0002  2.87590000000000E+0004
 5.33600000000000E+0002  2.86140000000000E+0004
 5.33700000000000E+0002  2.82940000000000E+0004
 5.33800000000000E+0002  2.84370000000000E+0004
 5.33900000000000E+0002  2.79660000000000E+0004
 5.34000000000000E+0002  2.83130000000000E+0004
 5.34100000000000E+0002  2.83060000000000E+0004
 5.34200000000000E+0002  2.80310000000000E+0004
 5.34300000000000E+0002  2.88010000000000E+0004
 5.34400000000000E+0002  2.81360000000000E+0004
 5.34500000000000E+0002  2.86900000000000E+0004
 5.34600000000000E+0002  2.82010000000000E+0004
 5.34700000000000E+0002  2.85410000000000E+0004
 5.34800000000000E+0002  2.88000000000000E+0004
 5.34900000000000E+0002  2.90890000000000E+0004
 5.35000000000000E+0002  2.96720000000000E+0004
 5.35100000000000E+0002  2.87870000000000E+0004
 5.35200000000000E+0002  2.89500000000000E+0004
 5.35300000000000E+0002  2.92500000000000E+0004
 5.35400000000000E+0002  2.87810000000000E+0004
 5.35500000000000E+0002  2.82410000000000E+0004
 5.35600000000000E+0002  2.88440000000000E+0004
 5.35700000000000E+0002  2.93520000000000E+0004
 5.35800000000000E+0002  2.95910000000000E+0004
 5.35900000000000E+0002  2.89110000000000E+0004
 5.36000000000000E+0002  2.93270000000000E+0004
 5.36100000000000E+0002  2.84750000000000E+0004
 5.36200000000000E+0002  2.96030000000000E+0004
 5.36300000000000E+0002  2.95530000000000E+0004
 5.36400000000000E+0002  2.94760000000000E+0004
 5.36500000000000E+0002  2.90640000000000E+0004
 5.36600000000000E+0002  2.89440000000000E+0004
 5.36700000000000E+0002  2.94460000000000E+0004
 5.36800000000000E+0002  2.88970000000000E+0004
 5.36900000000000E+0002  2.97390000000000E+0004
 5.37000000000000E+0002  2.92540000000000E+0004
 5.37100000000000E+0002  2.96050000000000E+0004
 5.37200000000000E+0002  2.92260000000000E+0004
 5.37300000000000E+0002  2.94680000000000E+0004
 5.37400000000000E+0002  2.99970000000000E+0004
 5.37500000000000E+0002  2.96290000000000E+0004
 5.37600000000000E+0002  3.02440000000000E+0004
 5.37700000000000E+0002  2.96280000000000E+0004
 5.37800000000000E+0002  2.96420000000000E+0004
 5.37900000000000E+0002  2.96580000000000E+0004
 5.38000000000000E+0002  2.94490000000000E+0004
 5.38100000000000E+0002  2.95970000000000E+0004
 5.38200000000000E+0002  3.03580000000000E+0004
 5.38300000000000E+0002  3.00000000000000E+0004
 5.38400000000000E+0002  2.94390000000000E+0004
 5.38500000000000E+0002  2.95610000000000E+0004
 5.38600000000000E+0002  3.01050000000000E+0004
 5.38700000000000E+0002  2.97610000000000E+0004
 5.38800000000000E+0002  3.00050000000000E+0004
 5.38900000000000E+0002  3.02550000000000E+0004
 5.39000000000000E+0002  2.94620000000000E+0004
 5.39100000000000E+0002  2.99830000000000E+0004
 5.39200000000000E+0002  3.02580000000000E+0004
 5.39300000000000E+0002  2.99450000000000E+0004
 5.39400000000000E+0002  3.06440000000000E+0004
 5.39500000000000E+0002  3.09050000000000E+0004
 5.39600000000000E+0002  3.05850000000000E+0004
 5.39700000000000E+0002  3.08110000000000E+0004
 5.39800000000000E+0002  3.04150000000000E+0004
 5.39900000000000E+0002  3.09210000000000E+0004
 5.40000000000000E+0002  3.06950000000000E+0004
 5.40100000000000E+0002  3.03660000000000E+0004
 5.40200000000000E+0002  3.03120000000000E+0004
 5.40300000000000E+0002  2.97640000000000E+0004
 5.40400000000000E+0002  2.98420000000000E+0004
 5.40500000000000E+0002  3.08760000000000E+0004
 5.40600000000000E+0002  3.04680000000000E+0004
 5.40700000000000E+0002  3.08130000000000E+0004
 5.40800000000000E+0002  3.07620000000000E+0004
 5.40900000000000E+0002  3.06200000000000E+0004
 5.41000000000000E+0002  3.10460000000000E+0004
 5.41100000000000E+0002  3.14490000000000E+0004
 5.41200000000000E+0002  3.06010000000000E+0004
 5.41300000000000E+0002  3.08440000000000E+0004
 5.41400000000000E+0002  3.06610000000000E+0004
 5.41500000000000E+0002  3.06230000000000E+0004
 5.41600000000000E+0002  3.03650000000000E+0004
 5.41700000000000E+0002  3.07780000000000E+0004
 5.41800000000000E+0002  3.07640000000000E+0004
 5.41900000000000E+0002  3.09930000000000E+0004
 5.42000000000000E+0002  3.12180000000000E+0004
 5.42100000000000E+0002  3.04120000000000E+0004
 5.42200000000000E+0002  3.03050000000000E+0004
 5.42300000000000E+0002  3.15100000000000E+0004
 5.42400000000000E+0002  3.06360000000000E+0004
 5.42500000000000E+0002  3.07950000000000E+0004
 5.42600000000000E+0002  3.18680000000000E+0004
 5.42700000000000E+0002  3.13600000000000E+0004
 5.42800000000000E+0002  3.11130000000000E+0004
 5.42900000000000E+0002  3.08100000000000E+0004
 5.43000000000000E+0002  3.14950000000000E+0004
 5.43100000000000E+0002  3.18900000000000E+0004
 5.43200000000000E+0002  3.08420000000000E+0004
 5.43300000000000E+0002  3.11970000000000E+0004
 5.43400000000000E+0002  3.15010000000000E+0004
 5.43500000000000E+0002  3.16690000000000E+0004
 5.43600000000000E+0002  3.13280000000000E+0004
 5.43700000000000E+0002  3.07060000000000E+0004
 5.43800000000000E+0002  3.14880000000000E+0004
 5.43900000000000E+0002  3.04800000000000E+0004
 5.44000000000000E+0002  3.09850000000000E+0004
 5.44100000000000E+0002  3.09700000000000E+0004
 5.44200000000000E+0002  3.10930000000000E+0004
 5.44300000000000E+0002  3.12910000000000E+0004
 5.44400000000000E+0002  3.20380000000000E+0004
 5.44500000000000E+0002  3.23510000000000E+0004
 5.44600000000000E+0002  3.14450000000000E+0004
 5.44700000000000E+0002  3.21910000000000E+0004
 5.44800000000000E+0002  3.21020000000000E+0004
 5.44900000000000E+0002  3.18760000000000E+0004
 5.45000000000000E+0002  3.17120000000000E+0004
 5.45100000000000E+0002  3.16220000000000E+0004
 5.45200000000000E+0002  3.25520000000000E+0004
 5.45300000000000E+0002  3.20860000000000E+0004
 5.45400000000000E+0002  3.20310000000000E+0004
 5.45500000000000E+0002  3.18500000000000E+0004
 5.45600000000000E+0002  3.14660000000000E+0004
 5.45700000000000E+0002  3.15580000000000E+0004
 5.45800000000000E+0002  3.18340000000000E+0004
 5.45900000000000E+0002  3.18410000000000E+0004
 5.46000000000000E+0002  3.22200000000000E+0004
 5.46100000000000E+0002  3.16970000000000E+0004
 5.46200000000000E+0002  3.12860000000000E+0004
 5.46300000000000E+0002  3.28470000000000E+0004
 5.46400000000000E+0002  3.16120000000000E+0004
 5.46500000000000E+0002  3.25340000000000E+0004
 5.46600000000000E+0002  3.22490000000000E+0004
 5.46700000000000E+0002  3.24950000000000E+0004
 5.46800000000000E+0002  3.21730000000000E+0004
 5.46900000000000E+0002  3.27970000000000E+0004
 5.47000000000000E+0002  3.23250000000000E+0004
 5.47100000000000E+0002  3.25580000000000E+0004
 5.47200000000000E+0002  3.22680000000000E+0004
 5.47300000000000E+0002  3.17180000000000E+0004
 5.47400000000000E+0002  3.16300000000000E+0004
 5.47500000000000E+0002  3.24400000000000E+0004
 5.47600000000000E+0002  3.31930000000000E+0004
 5.47700000000000E+0002  3.26670000000000E+0004
 5.47800000000000E+0002  3.31260000000000E+0004
 5.47900000000000E+0002  3.33700000000000E+0004
 5.48000000000000E+0002  3.35060000000000E+0004
 5.48100000000000E+0002  3.29150000000000E+0004
 5.48200000000000E+0002  3.26030000000000E+0004
 5.48300000000000E+0002  3.29210000000000E+0004
 5.48400000000000E+0002  3.30290000000000E+0004
 5.48500000000000E+0002  3.33910000000000E+0004
 5.48600000000000E+0002  3.26280000000000E+0004
 5.48700000000000E+0002  3.31860000000000E+0004
 5.48800000000000E+0002  3.37100000000000E+0004
 5.48900000000000E+0002  3.31000000000000E+0004
 5.49000000000000E+0002  3.32570000000000E+0004
 5.49100000000000E+0002  3.34610000000000E+0004
 5.49200000000000E+0002  3.34820000000000E+0004
 5.49300000000000E+0002  3.33780000000000E+0004
 5.49400000000000E+0002  3.34370000000000E+0004
 5.49500000000000E+0002  3.42430000000000E+0004
 5.49600000000000E+0002  3.38590000000000E+0004
 5.49700000000000E+0002  3.38530000000000E+0004
 5.49800000000000E+0002  3.42860000000000E+0004
 5.49900000000000E+0002  3.37880000000000E+0004
 5.50000000000000E+0002  3.37370000000000E+0004
 5.50100000000000E+0002  3.37620000000000E+0004
 5.50200000000000E+0002  3.31790000000000E+0004
 5.50300000000000E+0002  3.33050000000000E+0004
 5.50400000000000E+0002  3.37480000000000E+0004
 5.50500000000000E+0002  3.32750000000000E+0004
 5.50600000000000E+0002  3.32260000000000E+0004
 5.50700000000000E+0002  3.34250000000000E+0004
 5.50800000000000E+0002  3.34390000000000E+0004
 5.50900000000000E+0002  3.25590000000000E+0004
 5.51000000000000E+0002  3.32790000000000E+0004
 5.51100000000000E+0002  3.31090000000000E+0004
 5.51200000000000E+0002  3.27740000000000E+0004
 5.51300000000000E+0002  3.32570000000000E+0004
 5.51400000000000E+0002  3.31850000000000E+0004
 5.51500000000000E+0002  3.21710000000000E+0004
 5.51600000000000E+0002  3.33150000000000E+0004
 5.51700000000000E+0002  3.30320000000000E+0004
 5.51800000000000E+0002  3.29120000000000E+0004
 5.51900000000000E+0002  3.29390000000000E+0004
 5.52000000000000E+0002  3.31130000000000E+0004
 5.52100000000000E+0002  3.27830000000000E+0004
 5.52200000000000E+0002  3.36360000000000E+0004
 5.52300000000000E+0002  3.28430000000000E+0004
 5.52400000000000E+0002  3.32670000000000E+0004
 5.52500000000000E+0002  3.30530000000000E+0004
 5.52600000000000E+0002  3.32370000000000E+0004
 5.52700000000000E+0002  3.28170000000000E+0004
 5.52800000000000E+0002  3.28600000000000E+0004
 5.52900000000000E+0002  3.29080000000000E+0004
 5.53000000000000E+0002  3.34440000000000E+0004
 5.53100000000000E+0002  3.39760000000000E+0004
 5.53200000000000E+0002  3.41370000000000E+0004
 5.53300000000000E+0002  3.23920000000000E+0004
 5.53400000000000E+0002  3.26870000000000E+0004
 5.53500000000000E+0002  3.35630000000000E+0004
 5.53600000000000E+0002  3.37230000000000E+0004
 5.53700000000000E+0002  3.35280000000000E+0004
 5.53800000000000E+0002  3.36990000000000E+0004
 5.53900000000000E+0002  3.34390000000000E+0004
 5.54000000000000E+0002  3.41870000000000E+0004
 5.54100000000000E+0002  3.39900000000000E+0004
 5.54200000000000E+0002  3.38590000000000E+0004
 5.54300000000000E+0002  3.42180000000000E+0004
 5.54400000000000E+0002  3.44280000000000E+0004
 5.54500000000000E+0002  3.43590000000000E+0004
 5.54600000000000E+0002  3.47790000000000E+0004
 5.54700000000000E+0002  3.43070000000000E+0004
 5.54800000000000E+0002  3.43210000000000E+0004
 5.54900000000000E+0002  3.50070000000000E+0004
 5.55000000000000E+0002  3.51200000000000E+0004
 5.55100000000000E+0002  3.42190000000000E+0004
 5.55200000000000E+0002  3.52770000000000E+0004
 5.55300000000000E+0002  3.49910000000000E+0004
 5.55400000000000E+0002  3.53900000000000E+0004
 5.55500000000000E+0002  3.56740000000000E+0004
 5.55600000000000E+0002  3.59480000000000E+0004
 5.55700000000000E+0002  3.61350000000000E+0004
 5.55800000000000E+0002  3.58800000000000E+0004
 5.55900000000000E+0002  3.62780000000000E+0004
 5.56000000000000E+0002  3.56450000000000E+0004
 5.56100000000000E+0002  3.64350000000000E+0004
 5.56200000000000E+0002  3.73780000000000E+0004
 5.56300000000000E+0002  3.62390000000000E+0004
 5.56400000000000E+0002  3.63240000000000E+0004
 5.56500000000000E+0002  3.56620000000000E+0004
 5.56600000000000E+0002  3.63360000000000E+0004
 5.56700000000000E+0002  3.68910000000000E+0004
 5.56800000000000E+0002  3.76550000000000E+0004
 5.56900000000000E+0002  3.76470000000000E+0004
 5.57000000000000E+0002  3.73640000000000E+0004
 5.57100000000000E+0002  3.71800000000000E+0004
 5.57200000000000E+0002  3.72710000000000E+0004
 5.57300000000000E+0002  3.73330000000000E+0004
 5.57400000000000E+0002  3.79160000000000E+0004
 5.57500000000000E+0002  3.72280000000000E+0004
 5.57600000000000E+0002  3.82610000000000E+0004
 5.57700000000000E+0002  3.78010000000000E+0004
 5.57800000000000E+0002  3.70600000000000E+0004
 5.57900000000000E+0002  3.72050000000000E+0004
 5.58000000000000E+0002  3.72290000000000E+0004
 5.58100000000000E+0002  3.78750000000000E+0004
 5.58200000000000E+0002  3.81060000000000E+0004
 5.58300000000000E+0002  3.83780000000000E+0004
 5.58400000000000E+0002  3.81550000000000E+0004
 5.58500000000000E+0002  3.75300000000000E+0004
 5.58600000000000E+0002  3.82220000000000E+0004
 5.58700000000000E+0002  3.89840000000000E+0004
 5.58800000000000E+0002  3.82630000000000E+0004
 5.58900000000000E+0002  3.80690000000000E+0004
 5.59000000000000E+0002  3.85540000000000E+0004
 5.59100000000000E+0002  3.86640000000000E+0004
 5.59200000000000E+0002  3.83200000000000E+0004
 5.59300000000000E+0002  3.87180000000000E+0004
 5.59400000000000E+0002  3.92180000000000E+0004
 5.59500000000000E+0002  3.84050000000000E+0004
 5.59600000000000E+0002  3.88410000000000E+0004
 5.59700000000000E+0002  3.86830000000000E+0004
 5.59800000000000E+0002  3.88980000000000E+0004
 5.59900000000000E+0002  3.95840000000000E+0004
 5.60000000000000E+0002  3.93810000000000E+0004
 5.60100000000000E+0002  3.95410000000000E+0004
 5.60200000000000E+0002  3.91360000000000E+0004
 5.60300000000000E+0002  3.98910000000000E+0004
 5.60400000000000E+0002  3.93890000000000E+0004
 5.60500000000000E+0002  3.99410000000000E+0004
 5.60600000000000E+0002  3.96000000000000E+0004
 5.60700000000000E+0002  4.07950000000000E+0004
 5.60800000000000E+0002  3.99470000000000E+0004
 5.60900000000000E+0002  4.07870000000000E+0004
 5.61000000000000E+0002  4.03010000000000E+0004
 5.61100000000000E+0002  4.03440000000000E+0004
 5.61200000000000E+0002  4.06190000000000E+0004
 5.61300000000000E+0002  4.15290000000000E+0004
 5.61400000000000E+0002  4.10940000000000E+0004
 5.61500000000000E+0002  4.15210000000000E+0004
 5.61600000000000E+0002  4.13680000000000E+0004
 5.61700000000000E+0002  4.19680000000000E+0004
 5.61800000000000E+0002  4.23810000000000E+0004
 5.61900000000000E+0002  4.18800000000000E+0004
 5.62000000000000E+0002  4.32490000000000E+0004
 5.62100000000000E+0002  4.30300000000000E+0004
 5.62200000000000E+0002  4.29830000000000E+0004
 5.62300000000000E+0002  4.35390000000000E+0004
 5.62400000000000E+0002  4.32540000000000E+0004
 5.62500000000000E+0002  4.31850000000000E+0004
 5.62600000000000E+0002  4.35860000000000E+0004
 5.62700000000000E+0002  4.47700000000000E+0004
 5.62800000000000E+0002  4.47650000000000E+0004
 5.62900000000000E+0002  4.44810000000000E+0004
 5.63000000000000E+0002  4.52610000000000E+0004
 5.63100000000000E+0002  4.54040000000000E+0004
 5.63200000000000E+0002  4.59720000000000E+0004
 5.63300000000000E+0002  4.60950000000000E+0004
 5.63400000000000E+0002  4.76920000000000E+0004
 5.63500000000000E+0002  4.73720000000000E+0004
 5.63600000000000E+0002  4.72520000000000E+0004
 5.63700000000000E+0002  4.83530000000000E+0004
 5.63800000000000E+0002  4.90820000000000E+0004
 5.63900000000000E+0002  4.95070000000000E+0004
 5.64000000000000E+0002  4.98610000000000E+0004
 5.64100000000000E+0002  5.04270000000000E+0004
 5.64200000000000E+0002  5.07700000000000E+0004
 5.64300000000000E+0002  5.24930000000000E+0004
 5.64400000000000E+0002  5.33330000000000E+0004
 5.64500000000000E+0002  5.43960000000000E+0004
 5.64600000000000E+0002  5.51880000000000E+0004
 5.64700000000000E+0002  5.59570000000000E+0004
 5.64800000000000E+0002  5.65540000000000E+0004
 5.64900000000000E+0002  5.76650000000000E+0004
 5.65000000000000E+0002  6.03190000000000E+0004
 5.65100000000000E+0002  6.19360000000000E+0004
 5.65200000000000E+0002  6.23570000000000E+0004
 5.65300000000000E+0002  6.42220000000000E+0004
 5.65400000000000E+0002  6.61480000000000E+0004
 5.65500000000000E+0002  6.88760000000000E+0004
 5.65600000000000E+0002  7.17470000000000E+0004
 5.65700000000000E+0002  7.31220000000000E+0004
 5.65800000000000E+0002  7.59910000000000E+0004
 5.65900000000000E+0002  7.90200000000000E+0004
 5.66000000000000E+0002  8.17780000000000E+0004
 5.66100000000000E+0002  8.40410000000000E+0004
 5.66200000000000E+0002  8.68960000000000E+0004
 5.66300000000000E+0002  8.87550000000000E+0004
 5.66400000000000E+0002  9.12420000000000E+0004
 5.66500000000000E+0002  9.36920000000000E+0004
 5.66600000000000E+0002  9.58430000000000E+0004
 5.66700000000000E+0002  9.47170000000000E+0004
 5.66800000000000E+0002  9.72970000000000E+0004
 5.66900000000000E+0002  9.77210000000000E+0004
 5.67000000000000E+0002  9.80880000000000E+0004
 5.67100000000000E+0002  9.64490000000000E+0004
 5.67200000000000E+0002  9.69630000000000E+0004
 5.67300000000000E+0002  9.69200000000000E+0004
 5.67400000000000E+0002  9.71650000000000E+0004
 5.67500000000000E+0002  9.70990000000000E+0004
 5.67600000000000E+0002  9.77450000000000E+0004
 5.67700000000000E+0002  9.95850000000000E+0004
 5.67800000000000E+0002  1.00822000000000E+0005
 5.67900000000000E+0002  1.03491000000000E+0005
 5.68000000000000E+0002  1.03740000000000E+0005
 5.68100000000000E+0002  1.07529000000000E+0005
 5.68200000000000E+0002  1.10041000000000E+0005
 5.68300000000000E+0002  1.12613000000000E+0005
 5.68400000000000E+0002  1.16540000000000E+0005
 5.68500000000000E+0002  1.19166000000000E+0005
 5.68600000000000E+0002  1.21318000000000E+0005
 5.68700000000000E+0002  1.26543000000000E+0005
 5.68800000000000E+0002  1.27410000000000E+0005
 5.68900000000000E+0002  1.29912000000000E+0005
 5.69000000000000E+0002  1.27719000000000E+0005
 5.69100000000000E+0002  1.27462000000000E+0005
 5.69200000000000E+0002  1.26782000000000E+0005
 5.69300000000000E+0002  1.24735000000000E+0005
 5.69400000000000E+0002  1.19922000000000E+0005
 5.69500000000000E+0002  1.13688000000000E+0005
 5.69600000000000E+0002  1.07279000000000E+0005
 5.69700000000000E+0002  1.02553000000000E+0005
 5.69800000000000E+0002  9.76090000000000E+0004
 5.69900000000000E+0002  9.33920000000000E+0004
 5.70000000000000E+0002  8.72880000000000E+0004
 5.70100000000000E+0002  8.11750000000000E+0004
 5.70200000000000E+0002  7.87100000000000E+0004
 5.70300000000000E+0002  7.33160000000000E+0004
 5.70400000000000E+0002  7.01270000000000E+0004
 5.70500000000000E+0002  6.64300000000000E+0004
 5.70600000000000E+0002  6.29240000000000E+0004
 5.70700000000000E+0002  6.12230000000000E+0004
 5.70800000000000E+0002  5.90540000000000E+0004
 5.70900000000000E+0002  5.59900000000000E+0004
 5.71000000000000E+0002  5.40410000000000E+0004
 5.71100000000000E+0002  5.15820000000000E+0004
 5.71200000000000E+0002  4.98850000000000E+0004
 5.71300000000000E+0002  4.81890000000000E+0004
 5.71400000000000E+0002  4.68900000000000E+0004
 5.71500000000000E+0002  4.71720000000000E+0004
 5.71600000000000E+0002  4.55580000000000E+0004
 5.71700000000000E+0002  4.39220000000000E+0004
 5.71800000000000E+0002  4.32000000000000E+0004
 5.71900000000000E+0002  4.16510000000000E+0004
 5.72000000000000E+0002  4.10240000000000E+0004
 5.72100000000000E+0002  4.00750000000000E+0004
 5.72200000000000E+0002  3.90190000000000E+0004
 5.72300000000000E+0002  3.92170000000000E+0004
 5.72400000000000E+0002  3.84970000000000E+0004
 5.72500000000000E+0002  3.82350000000000E+0004
 5.72600000000000E+0002  3.77240000000000E+0004
 5.72700000000000E+0002  3.67640000000000E+0004
 5.72800000000000E+0002  3.61330000000000E+0004
 5.72900000000000E+0002  3.56530000000000E+0004
 5.73000000000000E+0002  3.63880000000000E+0004
 5.73100000000000E+0002  3.53080000000000E+0004
 5.73200000000000E+0002  3.45290000000000E+0004
 5.73300000000000E+0002  3.50500000000000E+0004
 5.73400000000000E+0002  3.36050000000000E+0004
 5.73500000000000E+0002  3.34870000000000E+0004
 5.73600000000000E+0002  3.32180000000000E+0004
 5.73700000000000E+0002  3.30670000000000E+0004
 5.73800000000000E+0002  3.34410000000000E+0004
 5.73900000000000E+0002  3.27240000000000E+0004
 5.74000000000000E+0002  3.18050000000000E+0004
 5.74100000000000E+0002  3.25100000000000E+0004
 5.74200000000000E+0002  3.18410000000000E+0004
 5.74300000000000E+0002  3.11260000000000E+0004
 5.74400000000000E+0002  3.14770000000000E+0004
 5.74500000000000E+0002  3.18270000000000E+0004
 5.74600000000000E+0002  3.05440000000000E+0004
 5.74700000000000E+0002  3.09420000000000E+0004
 5.74800000000000E+0002  3.10590000000000E+0004
 5.74900000000000E+0002  3.04260000000000E+0004
 5.75000000000000E+0002  3.03730000000000E+0004
 5.75100000000000E+0002  2.98260000000000E+0004
 5.75200000000000E+0002  3.00880000000000E+0004
 5.75300000000000E+0002  3.00450000000000E+0004
 5.75400000000000E+0002  3.03700000000000E+0004
 5.75500000000000E+0002  2.87320000000000E+0004
 5.75600000000000E+0002  2.95620000000000E+0004
 5.75700000000000E+0002  2.93830000000000E+0004
 5.75800000000000E+0002  2.94640000000000E+0004
 5.75900000000000E+0002  2.92500000000000E+0004
 5.76000000000000E+0002  2.98000000000000E+0004
 5.76100000000000E+0002  2.88680000000000E+0004
 5.76200000000000E+0002  2.90380000000000E+0004
 5.76300000000000E+0002  2.89280000000000E+0004
 5.76400000000000E+0002  2.88980000000000E+0004
 5.76500000000000E+0002  2.83070000000000E+0004
 5.76600000000000E+0002  2.83780000000000E+0004
 5.76700000000000E+0002  2.85640000000000E+0004
 5.76800000000000E+0002  2.79150000000000E+0004
 5.76900000000000E+0002  2.82070000000000E+0004
 5.77000000000000E+0002  2.84870000000000E+0004
 5.77100000000000E+0002  2.80560000000000E+0004
 5.77200000000000E+0002  2.75660000000000E+0004
 5.77300000000000E+0002  2.71030000000000E+0004
 5.77400000000000E+0002  2.82590000000000E+0004
 5.77500000000000E+0002  2.80440000000000E+0004
 5.77600000000000E+0002  2.75730000000000E+0004
 5.77700000000000E+0002  2.78380000000000E+0004
 5.77800000000000E+0002  2.79150000000000E+0004
 5.77900000000000E+0002  2.74840000000000E+0004
 5.78000000000000E+0002  2.70210000000000E+0004
 5.78100000000000E+0002  2.74330000000000E+0004
 5.78200000000000E+0002  2.75230000000000E+0004
 5.78300000000000E+0002  2.81480000000000E+0004
 5.78400000000000E+0002  2.75780000000000E+0004
 5.78500000000000E+0002  2.73200000000000E+0004
 5.78600000000000E+0002  2.76330000000000E+0004
 5.78700000000000E+0002  2.75100000000000E+0004
 5.78800000000000E+0002  2.72060000000000E+0004
 5.78900000000000E+0002  2.66940000000000E+0004
 5.79000000000000E+0002  2.70050000000000E+0004
 5.79100000000000E+0002  2.68900000000000E+0004
 5.79200000000000E+0002  2.68550000000000E+0004
 5.79300000000000E+0002  2.72150000000000E+0004
 5.79400000000000E+0002  2.70930000000000E+0004
 5.79500000000000E+0002  2.67450000000000E+0004
 5.79600000000000E+0002  2.68830000000000E+0004
 5.79700000000000E+0002  2.71650000000000E+0004
 5.79800000000000E+0002  2.67030000000000E+0004
 5.79900000000000E+0002  2.75440000000000E+0004
 5.80000000000000E+0002  2.67670000000000E+0004
 5.80100000000000E+0002  2.68310000000000E+0004
 5.80200000000000E+0002  2.63920000000000E+0004
 5.80300000000000E+0002  2.64710000000000E+0004
 5.80400000000000E+0002  2.65420000000000E+0004
 5.80500000000000E+0002  2.67940000000000E+0004
 5.80600000000000E+0002  2.68670000000000E+0004
 5.80700000000000E+0002  2.64570000000000E+0004
 5.80800000000000E+0002  2.68730000000000E+0004
 5.80900000000000E+0002  2.61040000000000E+0004
 5.81000000000000E+0002  2.67120000000000E+0004
 5.81100000000000E+0002  2.66670000000000E+0004
 5.81200000000000E+0002  2.62050000000000E+0004
 5.81300000000000E+0002  2.61710000000000E+0004
 5.81400000000000E+0002  2.66890000000000E+0004
 5.81500000000000E+0002  2.66820000000000E+0004
 5.81600000000000E+0002  2.62590000000000E+0004
 5.81700000000000E+0002  2.70580000000000E+0004
 5.81800000000000E+0002  2.62220000000000E+0004
 5.81900000000000E+0002  2.65820000000000E+0004
 5.82000000000000E+0002  2.60260000000000E+0004
 5.82100000000000E+0002  2.70510000000000E+0004
 5.82200000000000E+0002  2.67710000000000E+0004
 5.82300000000000E+0002  2.65430000000000E+0004
 5.82400000000000E+0002  2.70570000000000E+0004
 5.82500000000000E+0002  2.74840000000000E+0004
 5.82600000000000E+0002  2.64700000000000E+0004
 5.82700000000000E+0002  2.70340000000000E+0004
 5.82800000000000E+0002  2.69410000000000E+0004
 5.82900000000000E+0002  2.77720000000000E+0004
 5.83000000000000E+0002  2.71060000000000E+0004
 5.83100000000000E+0002  2.71550000000000E+0004
 5.83200000000000E+0002  2.75540000000000E+0004
 5.83300000000000E+0002  2.72550000000000E+0004
 5.83400000000000E+0002  2.73990000000000E+0004
 5.83500000000000E+0002  2.69290000000000E+0004
 5.83600000000000E+0002  2.73990000000000E+0004
 5.83700000000000E+0002  2.63230000000000E+0004
 5.83800000000000E+0002  2.72820000000000E+0004
 5.83900000000000E+0002  2.72780000000000E+0004
 5.84000000000000E+0002  2.73300000000000E+0004
 5.84100000000000E+0002  2.67750000000000E+0004
 5.84200000000000E+0002  2.77750000000000E+0004
 5.84300000000000E+0002  2.67670000000000E+0004
 5.84400000000000E+0002  2.73450000000000E+0004
 5.84500000000000E+0002  2.81690000000000E+0004
 5.84600000000000E+0002  2.85160000000000E+0004
 5.84700000000000E+0002  2.79110000000000E+0004
 5.84800000000000E+0002  2.77070000000000E+0004
 5.84900000000000E+0002  2.77160000000000E+0004
 5.85000000000000E+0002  2.73880000000000E+0004
 5.85100000000000E+0002  2.83520000000000E+0004
 5.85200000000000E+0002  2.79900000000000E+0004
 5.85300000000000E+0002  2.80790000000000E+0004
 5.85400000000000E+0002  2.80440000000000E+0004
 5.85500000000000E+0002  2.83450000000000E+0004
 5.85600000000000E+0002  2.80340000000000E+0004
 5.85700000000000E+0002  2.83640000000000E+0004
 5.85800000000000E+0002  2.89160000000000E+0004
 5.85900000000000E+0002  2.82330000000000E+0004
 5.86000000000000E+0002  2.93600000000000E+0004
 5.86100000000000E+0002  2.95160000000000E+0004
 5.86200000000000E+0002  2.86690000000000E+0004
 5.86300000000000E+0002  2.95750000000000E+0004
 5.86400000000000E+0002  2.98270000000000E+0004
 5.86500000000000E+0002  2.90990000000000E+0004
 5.86600000000000E+0002  2.91330000000000E+0004
 5.86700000000000E+0002  2.94160000000000E+0004
 5.86800000000000E+0002  3.00010000000000E+0004
 5.86900000000000E+0002  2.96840000000000E+0004
 5.87000000000000E+0002  3.00480000000000E+0004
 5.87100000000000E+0002  3.05740000000000E+0004
 5.87200000000000E+0002  2.94230000000000E+0004
 5.87300000000000E+0002  3.05380000000000E+0004
 5.87400000000000E+0002  3.03630000000000E+0004
 5.87500000000000E+0002  3.08520000000000E+0004
 5.87600000000000E+0002  3.05930000000000E+0004
 5.87700000000000E+0002  3.12770000000000E+0004
 5.87800000000000E+0002  3.07020000000000E+0004
 5.87900000000000E+0002  3.06190000000000E+0004
 5.88000000000000E+0002  3.05560000000000E+0004
 5.88100000000000E+0002  3.09960000000000E+0004
 5.88200000000000E+0002  3.05450000000000E+0004
 5.88300000000000E+0002  3.09690000000000E+0004
 5.88400000000000E+0002  3.10160000000000E+0004
 5.88500000000000E+0002  3.12540000000000E+0004
 5.88600000000000E+0002  3.17730000000000E+0004
 5.88700000000000E+0002  3.21420000000000E+0004
 5.88800000000000E+0002  3.17390000000000E+0004
 5.88900000000000E+0002  3.18440000000000E+0004
 5.89000000000000E+0002  3.16170000000000E+0004
 5.89100000000000E+0002  3.18820000000000E+0004
 5.89200000000000E+0002  3.16830000000000E+0004
 5.89300000000000E+0002  3.22000000000000E+0004
 5.89400000000000E+0002  3.13980000000000E+0004
 5.89500000000000E+0002  3.19840000000000E+0004
 5.89600000000000E+0002  3.21980000000000E+0004
 5.89700000000000E+0002  3.23080000000000E+0004
 5.89800000000000E+0002  3.16090000000000E+0004
 5.89900000000000E+0002  3.23710000000000E+0004
 5.90000000000000E+0002  3.30420000000000E+0004

